#Wavelength,Qabs,Qsca,Qext
400,1.6987121227234088E-14,1.058379229523716E-14,2.7570913522471248E-14
402.7027027027027,1.695419723256087E-14,1.0544090703866615E-14,2.7498287936427484E-14
405.4054054054054,1.6912682589886942E-14,1.0500948425681667E-14,2.7413631015568608E-14
408.10810810810807,1.6862549462082484E-14,1.0454367145304654E-14,2.7316916607387137E-14
410.8108108108108,1.680379552351229E-14,1.0404357219240305E-14,2.7208152742752594E-14
413.5135135135135,1.6735625703322987E-14,1.0349848038283065E-14,2.708547374160605E-14
416.2162162162162,1.664941488867271E-14,1.0279129571426807E-14,2.6928544460099515E-14
418.9189189189189,1.6554873859718792E-14,1.020488336476343E-14,2.6759757224482223E-14
421.6216216216216,1.6452179677819375E-14,1.0127219113070279E-14,2.6579398790889653E-14
424.3243243243243,1.634153321976824E-14,1.0046254942589825E-14,2.6387788162358065E-14
427.02702702702703,1.6223157775098932E-14,9.962116802893154E-15,2.6185274577992086E-14
429.72972972972974,1.609729752033068E-14,9.874937812026602E-15,2.5972235332357282E-14
432.4324324324324,1.5966188168248925E-14,9.759060827384012E-15,2.5725248995632937E-14
435.1351351351351,1.5830293851999705E-14,9.63151340530781E-15,2.5461807257307516E-14
437.8378378378378,1.5689378846487875E-14,9.502996090868443E-15,2.5192374937356318E-14
440.5405405405405,1.5543771151665406E-14,9.373698653547008E-15,2.4917469805212412E-14
443.2432432432432,1.539379864003422E-14,9.24380460832796E-15,2.463760324836218E-14
445.94594594594594,1.5239787558833584E-14,9.113490794223338E-15,2.435327835305692E-14
448.64864864864865,1.5082061150448824E-14,8.982927020207415E-15,2.406498817065624E-14
451.35135135135135,1.4920045775251552E-14,8.849206309709686E-15,2.376925208496124E-14
454.05405405405406,1.4750890930712972E-14,8.700735048162829E-15,2.3451625978875802E-14
456.7567567567568,1.4579648120922106E-14,8.553324208250974E-15,2.313297232917308E-14
459.4594594594594,1.440662644670545E-14,8.407112338133735E-15,2.2813738784839187E-14
462.16216216216213,1.423212216535497E-14,8.26222656860968E-15,2.249434873396465E-14
464.86486486486484,1.4056418316734413E-14,8.118782933100746E-15,2.2175201249835157E-14
467.56756756756755,1.3879784477231989E-14,7.976886726413141E-15,2.185667120364513E-14
470.27027027027026,1.3702476619317373E-14,7.836632899352355E-15,2.1539109518669726E-14
472.97297297297297,1.354347366420295E-14,7.708810505508979E-15,2.125228416971193E-14
475.6756756756757,1.3397046036923616E-14,7.590164839217809E-15,2.0987210876141427E-14
478.37837837837833,1.3249725748954776E-14,7.472965043373377E-15,2.072269079232815E-14
481.08108108108115,1.3101665944630409E-14,7.357241794810005E-15,2.0458907739440413E-14
483.78378378378375,1.2953013097709662E-14,7.243021576467323E-15,2.0196034674176985E-14
486.48648648648646,1.2803907076307604E-14,7.130326916367218E-15,1.9934233992674822E-14
489.18918918918916,1.2654481221999082E-14,7.0191766258057595E-15,1.9673657847804842E-14
491.8918918918919,1.2504862454100913E-14,6.90958602768718E-15,1.9414448481788092E-14
494.5945945945946,1.2355171387220477E-14,6.8015671784953475E-15,1.9156738565715825E-14
497.2972972972973,1.2222541543371758E-14,6.694993285327493E-15,1.891753482869925E-14
500,1.2105919919310865E-14,6.590229406226334E-15,1.86961493255372E-14
502.70270270270277,1.198946026354734E-14,6.487489904255299E-15,1.847695016780264E-14
505.4054054054055,1.1873218642422168E-14,6.386744341997913E-15,1.8259962984420082E-14
508.10810810810807,1.1757247399875387E-14,6.287961380871992E-15,1.804520878074738E-14
510.8108108108108,1.1641595342467462E-14,6.191108939974803E-15,1.7832704282442266E-14
513.5135135135134,1.1526307921936076E-14,6.096154338634766E-15,1.7622462260570842E-14
516.2162162162163,1.141142740802732E-14,6.0030644291023924E-15,1.741449183712971E-14
518.918918918919,1.1296993059433085E-14,5.911805715011067E-15,1.7208798774444152E-14
521.6216216216217,1.1203594815048243E-14,5.8323271938988815E-15,1.7035922008947126E-14
524.3243243243244,1.1166761325301302E-14,5.782243166935514E-15,1.6949004492236816E-14
527.0270270270271,1.1129817762421715E-14,5.73423505179123E-15,1.6864052814212944E-14
529.7297297297298,1.1092710793712018E-14,5.688257964649598E-15,1.6780968758361616E-14
532.4324324324324,1.1055383970535979E-14,5.644268360802916E-15,1.6699652331338894E-14
535.1351351351352,1.1017777676180565E-14,5.602224004714714E-15,1.6620001680895277E-14
537.8378378378378,1.0979829071763843E-14,5.56208393215675E-15,1.6541913003920592E-14
540.5405405405405,1.0941472028578516E-14,5.523808410778835E-15,1.6465280439357352E-14
543.2432432432432,1.0902637056402152E-14,5.4873588949783106E-15,1.6389995951380462E-14
545.9459459459459,1.0863251221868361E-14,5.452697979015788E-15,1.631594920088415E-14
548.6486486486486,1.0821299366564715E-14,5.420503324764477E-15,1.624180269132919E-14
551.3513513513514,1.0668377799579137E-14,5.427820932801603E-15,1.609619873238074E-14
554.0540540540541,1.0505737218698509E-14,5.4344430458336424E-15,1.5940180264532153E-14
556.7567567567567,1.0333178423080663E-14,5.440175102066053E-15,1.5773353525146715E-14
559.4594594594595,1.0150541764892492E-14,5.444820424588972E-15,1.5595362189481464E-14
562.1621621621621,9.957711665323334E-15,5.448181325360866E-15,1.5405892990684198E-14
564.8648648648648,9.754621039592781E-15,5.450060357108252E-15,1.520468139670103E-14
567.5675675675675,9.541255540513843E-15,5.450261703418026E-15,1.4991517243931868E-14
570.2702702702703,9.317657520585932E-15,5.448592699422832E-15,1.4766250220008765E-14
572.972972972973,9.083929608256723E-15,5.444865465844671E-15,1.4528795074101395E-14
575.6756756756757,8.840237790300288E-15,5.438898636410974E-15,1.427913642671126E-14
578.3783783783784,8.586813891064183E-15,5.430519155014868E-15,1.4017333046079051E-14
581.0810810810812,8.323957345802639E-15,5.4195641110120834E-15,1.3743521456814722E-14
583.7837837837839,7.868943308555753E-15,5.3831231983162356E-15,1.3252066506871989E-14
586.4864864864865,7.30539123619647E-15,5.3226155033446075E-15,1.2628006739541077E-14
589.1891891891893,6.75057562108622E-15,5.251142966876098E-15,1.2001718587962318E-14
591.8918918918919,6.2084561703127524E-15,5.1700002521515605E-15,1.1378456422464313E-14
594.5945945945946,5.682409407632658E-15,5.0805176246820745E-15,1.0762927032314732E-14
597.2972972972973,5.1752116768009935E-15,4.984021967024213E-15,1.0159233643825206E-14
600,4.689047196659891E-15,4.8818036625922544E-15,9.570850859252146E-15
602.7027027027027,4.2255364144644316E-15,4.775090017709219E-15,9.000626432173651E-15
605.4054054054054,3.7857795132306645E-15,4.665025326983587E-15,8.450804840214251E-15
608.1081081081081,3.370410062298065E-15,4.552657242039321E-15,7.923067304337387E-15
610.8108108108107,2.9796542956017674E-15,4.438928794698278E-15,7.418583090300046E-15
613.5135135135135,2.61339220706485E-15,4.324675236225158E-15,6.938067443290008E-15
616.2162162162161,2.2712174685624185E-15,4.210624786548972E-15,6.48184225511139E-15
618.9189189189188,2.094266880586803E-15,4.088825896356245E-15,6.1830927769430476E-15
621.6216216216216,1.967035753657763E-15,3.969920270168468E-15,5.936956023826231E-15
624.3243243243244,1.8482983583161322E-15,3.856472129108807E-15,5.704770487424939E-15
627.0270270270271,1.7374063199233172E-15,3.748169647173924E-15,5.485575967097241E-15
629.7297297297298,1.6337655194958784E-15,3.64472004654579E-15,5.278485566041668E-15
632.4324324324325,1.53683137721457E-15,3.5458486334985225E-15,5.082680010713092E-15
635.1351351351352,1.4461045228265324E-15,3.451297818624022E-15,4.897402341450555E-15
637.8378378378379,1.36112683224224E-15,3.3608261404515587E-15,4.721952972693799E-15
640.5405405405405,1.2814778050907011E-15,3.274207307075335E-15,4.555685112166036E-15
643.2432432432433,1.2067684554379544E-15,3.191227965405434E-15,4.3979964208433885E-15
645.9459459459459,1.1366496825464808E-15,3.1116938189235354E-15,4.248343501470016E-15
648.6486486486486,1.0707922238890582E-15,3.0354154873931164E-15,4.106207711282175E-15
651.3513513513514,1.008895853673852E-15,2.9622184205852426E-15,3.971114274259095E-15
654.0540540540541,9.50684156091927E-16,2.891938981921284E-15,3.8426231380132115E-15
656.7567567567568,8.959024647370178E-16,2.8244237244593545E-15,3.7203261891963725E-15
659.4594594594594,8.443159901252259E-16,2.759528711219929E-15,3.603844701345155E-15
662.1621621621622,8.162278230038819E-16,2.7016250327364648E-15,3.5178528557403468E-15
664.8648648648648,7.896798286467497E-16,2.6457996996190395E-15,3.435479528265789E-15
667.5675675675676,7.642813328995268E-16,2.5918873604645047E-15,3.3561686933640316E-15
670.2702702702702,7.399707115437875E-16,2.539799479317253E-15,3.279770190861041E-15
672.9729729729729,7.166902448596516E-16,2.4894525796630923E-15,3.206142824522744E-15
675.6756756756756,6.943858340025919E-16,2.440767905550028E-15,3.1351537395526202E-15
678.3783783783784,6.730067408047145E-16,2.3936711085020966E-15,3.0666778493068113E-15
681.0810810810812,6.525053478359388E-16,2.3480919576486513E-15,3.00059730548459E-15
683.7837837837839,6.328369382454711E-16,2.3039640720992047E-15,2.936801010344676E-15
686.4864864864866,6.139594931338876E-16,2.2612246721682963E-15,2.8751841653021838E-15
689.1891891891892,5.958335040513523E-16,2.2198143497635994E-15,2.8156478538149518E-15
691.891891891892,5.78421801123965E-16,2.1796768546024126E-15,2.7580986557263774E-15
694.5945945945946,5.616893935019474E-16,2.1407588966437876E-15,2.702448290145735E-15
697.2972972972974,5.45603322732634E-16,2.103009962019707E-15,2.648613284752341E-15
700,5.301325267665492E-16,2.0663821421925954E-15,2.5965146689591446E-15
702.7027027027027,5.152477146402E-16,2.0308299752953557E-15,2.5460776899355558E-15
705.4054054054054,5.030254050285063E-16,1.996740701586162E-15,2.499766106614668E-15
708.1081081081081,4.953005863111998E-16,1.9644430553646374E-15,2.4597436416758373E-15
710.8108108108108,4.877794426250793E-16,1.9330205923727263E-15,2.4208000349978056E-15
713.5135135135134,4.804547666032788E-16,1.9024410239453013E-15,2.3828957905485803E-15
716.2162162162163,4.733196683147567E-16,1.8726735495918697E-15,2.345993217906626E-15
718.9189189189188,4.663675585729741E-16,1.8436887752075276E-15,2.3100563337805017E-15
721.6216216216217,4.59592133352654E-16,1.8154586366572472E-15,2.2750507700099014E-15
724.3243243243243,4.529873590233873E-16,1.7879563279488195E-15,2.240943686972207E-15
727.027027027027,4.465474584868209E-16,1.7611562342805885E-15,2.2077036927674093E-15
729.7297297297297,4.402668981431647E-16,1.7350338687809204E-15,2.175300766924085E-15
732.4324324324325,4.3414037571943855E-16,1.709565813211759E-15,2.1437061889311978E-15
735.1351351351352,4.281628086482458E-16,1.684729662619884E-15,2.1128924712681297E-15
737.8378378378379,4.223293232795785E-16,1.660503972715021E-15,2.0828332959945995E-15
740.5405405405406,4.1663524441774716E-16,1.6368682109045914E-15,2.0535034553223385E-15
743.2432432432432,4.110760859674196E-16,1.6138027098549748E-15,2.0248787958223943E-15
745.945945945946,4.056475416413947E-16,1.5912886242468334E-15,1.996936165888228E-15
748.6486486486486,4.003454762904859E-16,1.5693078893246132E-15,1.969653365615099E-15
751.3513513513515,3.9516591794330375E-16,1.5478431824756429E-15,1.943009100418947E-15
754.0540540540541,3.901050499556278E-16,1.526877886782323E-15,1.9169829367379506E-15
756.7567567567568,3.849967798616262E-16,1.506543667919337E-15,1.891540447780963E-15
759.4594594594595,3.7959200493180466E-16,1.4870350141734658E-15,1.8666270191052703E-15
762.1621621621622,3.743101038432566E-16,1.4679466441646418E-15,1.8422567480078985E-15
764.8648648648649,3.691473949064169E-16,1.4492662646027737E-15,1.8184136595091905E-15
767.5675675675675,3.6410033173919624E-16,1.4309820297405828E-15,1.795082361479779E-15
770.2702702702703,3.591654974567129E-16,1.4130825217668662E-15,1.7722480192235792E-15
772.9729729729729,3.543385843102869E-16,1.3955710833385009E-15,1.7499096676487878E-15
775.6756756756757,3.4961847124346155E-16,1.3784083085319568E-15,1.7280267797754184E-15
778.3783783783783,3.450010596448155E-16,1.361598314206286E-15,1.7065993738511015E-15
781.081081081081,3.4048339725911357E-16,1.345131225547907E-15,1.6856146228070207E-15
783.7837837837837,3.36062636090286E-16,1.3289975127112575E-15,1.6650601488015434E-15
786.4864864864865,3.317360280286397E-16,1.3131879771731612E-15,1.6449240052018009E-15
789.1891891891893,3.275009207237914E-16,1.2976937375248573E-15,1.6251946582486488E-15
791.891891891892,3.2335475364710863E-16,1.2825062166122606E-15,1.6058609702593692E-15
794.5945945945947,3.192950543193244E-16,1.267617129297425E-15,1.5869121836167495E-15
797.2972972972973,3.1531943470966637E-16,1.2530184705065612E-15,1.5683379052162275E-15
800.0000000000001,3.1142558799277825E-16,1.2387025036639121E-15,1.5501280916566905E-15
