#Wavelength,Qabs,Qsca,Qext
400,8.860736481408976E-15,2.7543872607019835E-15,1.161512374211096E-14
402.7027027027027,8.798672698551172E-15,2.698271129614051E-15,1.1496943828165223E-14
405.4054054054054,8.736880602325892E-15,2.64373789176137E-15,1.1380618494087262E-14
408.10810810810807,8.67539995562625E-15,2.590742620926708E-15,1.1266142576552958E-14
410.8108108108108,8.614266761590961E-15,2.5392409449914965E-15,1.1153507706582459E-14
413.5135135135135,8.553716145765895E-15,2.488825381824221E-15,1.1042541527590116E-14
416.2162162162162,8.495985556183893E-15,2.4356906337209356E-15,1.0931676189904829E-14
418.9189189189189,8.43877859865694E-15,2.3841265208066566E-15,1.0822905119463596E-14
421.6216216216216,8.38211606947432E-15,2.3340822768391892E-15,1.0716198346313508E-14
424.3243243243243,8.32601611900135E-15,2.2855084311831074E-15,1.0611524550184458E-14
427.02702702702703,8.270494459802343E-15,2.2383568359194467E-15,1.0508851295721789E-14
429.72972972972974,8.215564563752937E-15,2.192580683175442E-15,1.0408145246928379E-14
432.4324324324324,8.189207482495874E-15,2.152277791249587E-15,1.034148527374546E-14
435.1351351351351,8.174974588438887E-15,2.1149172568570647E-15,1.0289891845295952E-14
437.8378378378378,8.161779195772299E-15,2.0788039624185464E-15,1.0240583158190845E-14
440.5405405405405,8.149621788634738E-15,2.043895023219164E-15,1.0193516811853902E-14
443.2432432432432,8.13850236187346E-15,2.0101492528756972E-15,1.0148651614749157E-14
445.94594594594594,8.128420503557737E-15,1.9775271130759317E-15,1.0105947616633668E-14
448.64864864864865,8.119375473717707E-15,1.9459906614863565E-15,1.0065366135204063E-14
451.35135135135135,8.11227542992838E-15,1.9145802042188486E-15,1.0026855634147229E-14
454.05405405405406,8.11075517614508E-15,1.8796394269668E-15,9.990394603111881E-15
456.7567567567568,8.110282143794204E-15,1.8457786676594746E-15,9.956060811453678E-15
459.4594594594594,8.110849490726582E-15,1.8129591559944924E-15,9.923808646721074E-15
462.16216216216213,8.112449903421784E-15,1.7811436647502227E-15,9.893593568172007E-15
464.86486486486484,8.115075622807978E-15,1.750296449784885E-15,9.865372072592863E-15
467.56756756756755,8.118718466531423E-15,1.7203831903747304E-15,9.839101656906154E-15
470.27027027027026,8.123367826375421E-15,1.6913741517100715E-15,9.814741978085492E-15
472.97297297297297,8.189743530646692E-15,1.6843044071247274E-15,9.874047937771419E-15
475.6756756756757,8.304133537735621E-15,1.6944520981393437E-15,9.998585635874965E-15
478.37837837837833,8.423997425913606E-15,1.7071055973455427E-15,1.0131103023259149E-14
481.08108108108115,8.549550030863446E-15,1.7223943178923695E-15,1.0271944348755815E-14
483.78378378378375,8.681022531596277E-15,1.740465734182068E-15,1.0421488265778345E-14
486.48648648648646,8.818663369323523E-15,1.7614875834556129E-15,1.0580150952779135E-14
489.18918918918916,8.96273916897797E-15,1.785650430724888E-15,1.0748389599702858E-14
491.8918918918919,9.113535639510256E-15,1.8131706633601808E-15,1.0926706302870436E-14
494.5945945945946,9.271358418900962E-15,1.8442939942937335E-15,1.1115652413194695E-14
497.2972972972973,9.451012516048167E-15,1.9181036448802484E-15,1.1369116160928416E-14
500,9.633224943543084E-15,2.0364293455612993E-15,1.1669654289104384E-14
502.70270270270277,9.793615564197279E-15,2.164489369026745E-15,1.1958104933224023E-14
505.4054054054055,9.925282534425457E-15,2.3022149068288887E-15,1.2227497441254345E-14
508.10810810810807,1.0020161642603008E-14,2.4492062128837774E-15,1.2469367855486784E-14
510.8108108108108,1.006904263552644E-14,2.6046269872169118E-15,1.2673669622743352E-14
513.5135135135134,1.0061750275846774E-14,2.767068394956294E-15,1.2828818670803069E-14
516.2162162162163,9.987419328979977E-15,2.934449936141567E-15,1.2921869265121545E-14
518.918918918919,9.835071015744138E-15,3.1039070176793496E-15,1.2938978033423488E-14
521.6216216216217,9.542695669165868E-15,3.231169865422243E-15,1.2773865534588112E-14
524.3243243243244,9.056308774077974E-15,3.235971105975661E-15,1.2292279880053635E-14
527.0270270270271,8.54817985841912E-15,3.2261568244283923E-15,1.1774336682847512E-14
529.7297297297298,8.02649471699625E-15,3.202686707994793E-15,1.1229181424991043E-14
532.4324324324324,7.49910966287267E-15,3.166800631288373E-15,1.0665910294161044E-14
535.1351351351352,6.9732553053877954E-15,3.1199350394508866E-15,1.0093190344838681E-14
537.8378378378378,6.455319947151636E-15,3.0636389030912055E-15,9.518958850242841E-15
540.5405405405405,5.950717137372371E-15,2.9994963284822105E-15,8.950213465854582E-15
543.2432432432432,5.463831995782674E-15,2.9290607420907553E-15,8.392892737873429E-15
545.9459459459459,4.99803401519493E-15,2.8538032733466065E-15,7.851837288541537E-15
548.6486486486486,4.557016479392325E-15,2.774910563935979E-15,7.331927043328304E-15
551.3513513513514,4.209374538927664E-15,2.6863742272733306E-15,6.895748766200995E-15
554.0540540540541,3.88422633221641E-15,2.599468056482382E-15,6.4836943886987915E-15
556.7567567567567,3.5808292083522396E-15,2.5145651482527384E-15,6.0953943566049776E-15
559.4594594594595,3.2982935306779147E-15,2.4319452609774954E-15,5.73023879165541E-15
562.1621621621621,3.03561480113545E-15,2.351815919347362E-15,5.387430720482812E-15
564.8648648648648,2.7917281442884483E-15,2.274319040723125E-15,5.0660471850115734E-15
567.5675675675675,2.56553811579077E-15,2.1995428298638E-15,4.76508094565457E-15
570.2702702702703,2.355944629899054E-15,2.127531343917193E-15,4.483475973816247E-15
572.972972972973,2.161862715660194E-15,2.05829286473856E-15,4.220155580398754E-15
575.6756756756757,1.9822371295875758E-15,1.9918071229040775E-15,3.974044252491654E-15
578.3783783783784,1.8160527622445584E-15,1.9280314524075637E-15,3.7440842146521225E-15
581.0810810810812,1.6623416622640618E-15,1.8669059774713684E-15,3.52924763973543E-15
583.7837837837839,1.5366629964278022E-15,1.807481951969842E-15,3.3441449483976443E-15
586.4864864864865,1.4298446428531156E-15,1.7503802971721768E-15,3.1802249400252926E-15
589.1891891891893,1.3307975102775419E-15,1.6960558997199464E-15,3.0268534099974883E-15
591.8918918918919,1.2388946595075637E-15,1.6443480655700164E-15,2.88324272507758E-15
594.5945945945946,1.153562746134828E-15,1.5951049120998788E-15,2.748667658234707E-15
597.2972972972973,1.0742775633999708E-15,1.5481832164540437E-15,2.6224607798540145E-15
600,1.0005598656755164E-15,1.5034481715508944E-15,2.5040080372264106E-15
602.7027027027027,9.319714828287783E-16,1.4607730777337493E-15,2.3927445605625275E-15
605.4054054054054,8.681117258084223E-16,1.420038992511794E-15,2.2881507183202163E-15
608.1081081081081,8.086140769742956E-16,1.381134354886022E-15,2.189748431860318E-15
610.8108108108107,7.531431535153415E-16,1.3439545971230058E-15,2.097097750638347E-15
613.5135135135135,7.013919292095208E-16,1.308401753410381E-15,2.0097936826199017E-15
616.2162162162161,6.530791657740466E-16,1.2743860485008768E-15,1.9274652142749234E-15
618.9189189189188,6.146547800263869E-16,1.2436967537179978E-15,1.8583515337443847E-15
621.6216216216216,5.802286492137524E-16,1.2147017168601325E-15,1.794930366073885E-15
624.3243243243244,5.477186691792708E-16,1.1868009413798525E-15,1.7345196105591234E-15
627.0270270270271,5.170029801807199E-16,1.1599400047847917E-15,1.6769429849655116E-15
629.7297297297298,4.87968454150298E-16,1.1340676894068246E-15,1.6220361435571227E-15
632.4324324324325,4.605100068714638E-16,1.1091357748549228E-15,1.5696457817263867E-15
635.1351351351352,4.3452996797960577E-16,1.0850988443162158E-15,1.5196288122958215E-15
637.8378378378379,4.0993750329277387E-16,1.0619141032617473E-15,1.4718516065545212E-15
640.5405405405405,3.8664808633149336E-16,1.0395412105838057E-15,1.426189296915299E-15
643.2432432432433,3.645830132462083E-16,1.0179421209998589E-15,1.3825251342460672E-15
645.9459459459459,3.436689583060406E-16,9.970809379884172E-16,1.3407498962944578E-15
648.6486486486486,3.2383756607673863E-16,9.769237768571598E-16,1.3007613429338984E-15
651.3513513513514,3.050250772422642E-16,9.574386368907238E-16,1.262463714132988E-15
654.0540540540541,2.8717198487886506E-16,9.385952825062136E-16,1.2257672673850786E-15
656.7567567567568,2.702227189204625E-16,9.203651321681498E-16,1.1905878510886123E-15
659.4594594594594,2.541253560402027E-16,9.027211550861148E-16,1.1568465111263175E-15
662.1621621621622,2.459432780363821E-16,8.862280669394641E-16,1.1321713449758462E-15
664.8648648648648,2.381985860848872E-16,8.70249332472559E-16,1.1084479185574462E-15
667.5675675675676,2.3076345841914715E-16,8.547543438292587E-16,1.0855178022484058E-15
670.2702702702702,2.236227036078017E-16,8.397228597638317E-16,1.0633455633716333E-15
672.9729729729729,2.1676201341176783E-16,8.251357022766489E-16,1.0418977156884167E-15
675.6756756756756,2.1016790347589327E-16,8.109746900434655E-16,1.0211425935193588E-15
678.3783783783784,2.0382765851670198E-16,7.972225767132384E-16,1.0010502352299405E-15
681.0810810810812,1.97729281688691E-16,7.83862993591656E-16,9.81592275280347E-16
683.7837837837839,1.9186144774243657E-16,7.708803963326802E-16,9.627418440751168E-16
686.4864864864866,1.8621345952492424E-16,7.582600153854114E-16,9.444734749103356E-16
689.1891891891892,1.8077520778971494E-16,7.459878099615423E-16,9.267630177512573E-16
691.891891891892,1.7553713387997562E-16,7.340504249824967E-16,9.095875588624723E-16
694.5945945945946,1.7049019505919841E-16,7.224351511796434E-16,8.92925346238842E-16
697.2972972972974,1.6562583244618206E-16,7.111298876108677E-16,8.767557200570498E-16
700,1.6093594098376684E-16,7.001231070362573E-16,8.610590480200242E-16
702.7027027027027,1.5641284170326542E-16,6.894038232164008E-16,8.458166649196662E-16
705.4054054054054,1.525385696316059E-16,6.790293525625662E-16,8.31567922194172E-16
708.1081081081081,1.4974193848735548E-16,6.690490002119919E-16,8.187909386993473E-16
710.8108108108108,1.47024688808515E-16,6.59315426453224E-16,8.063401152617391E-16
713.5135135135134,1.4438388180802594E-16,6.498201298273926E-16,7.942040116354185E-16
716.2162162162163,1.418167119697367E-16,6.405549792347123E-16,7.82371691204449E-16
718.9189189189188,1.3932049999701714E-16,6.315121945723333E-16,7.708326945693504E-16
721.6216216216217,1.3689268609270373E-16,6.226843284938242E-16,7.59577014586528E-16
724.3243243243243,1.3453082364700828E-16,6.14064249442207E-16,7.485950730892153E-16
727.027027027027,1.322325733432497E-16,6.056451254147845E-16,7.378776987580342E-16
729.7297297297297,1.299956975665259E-16,5.97420409024048E-16,7.274161065905739E-16
732.4324324324325,1.2781805522305176E-16,5.893838231099692E-16,7.172018783330209E-16
735.1351351351352,1.256975967847699E-16,5.815293474309232E-16,7.072269442156931E-16
737.8378378378379,1.2363235969161886E-16,5.738512060204707E-16,6.974835657120895E-16
740.5405405405406,1.2162046395221503E-16,5.663438552720246E-16,6.879643192242397E-16
743.2432432432432,1.1966010810543062E-16,5.590019726322063E-16,6.786620807376369E-16
745.945945945946,1.1774956524971E-16,5.518204462045195E-16,6.695700114542295E-16
748.6486486486486,1.1588717950681573E-16,5.447943644811124E-16,6.606815439879281E-16
751.3513513513515,1.1407136245993777E-16,5.379190070816274E-16,6.519903695415651E-16
754.0540540540541,1.1230058997411749E-16,5.31189835769577E-16,6.434904257436945E-16
756.7567567567568,1.106513783612487E-16,5.246167658901271E-16,6.352681442513758E-16
759.4594594594595,1.0923795158863489E-16,5.182164526996611E-16,6.27454404288296E-16
762.1621621621622,1.0785488954880508E-16,5.119473368671091E-16,6.198022264159141E-16
764.8648648648649,1.065013192581701E-16,5.058056461352466E-16,6.123069653934167E-16
767.5675675675675,1.0517639901624403E-16,4.99787746163251E-16,6.049641451794951E-16
770.2702702702703,1.0387933838865548E-16,4.938970820809777E-16,5.977764204696332E-16
772.9729729729729,1.0260931685415703E-16,4.881160777346302E-16,5.907253945887872E-16
775.6756756756757,1.0136559445868817E-16,4.824487289069736E-16,5.838143233656618E-16
778.3783783783783,1.0014744185272538E-16,4.768918973625936E-16,5.77039339215319E-16
781.081081081081,9.895415495808016E-17,4.714425551868591E-16,5.703967101449392E-16
783.7837837837837,9.778505379796915E-17,4.660977801292885E-16,5.638828339272576E-16
786.4864864864865,9.663948159006632E-17,4.608547512562489E-16,5.574942328463152E-16
789.1891891891893,9.551680381456651E-17,4.55710744505745E-16,5.512275483203115E-16
791.891891891892,9.441640721396988E-17,4.506631289333533E-16,5.450795361473232E-16
794.5945945945947,9.333769903791844E-17,4.457093626015185E-16,5.39047061639437E-16
797.2972972972973,9.228010617402156E-17,4.408469891167731E-16,5.331270952907946E-16
800.0000000000001,9.124307438545753E-17,4.3607363406326E-16,5.273167084487175E-16
