#Wavelength,Qabs,Qsca,Qext
400,1.6547375754608797E-14,8.665402189087083E-15,2.521277794369588E-14
402.7027027027027,1.6525903108923177E-14,8.520289907343383E-15,2.504619301626656E-14
405.4054054054054,1.6500223130407764E-14,8.376506455234517E-15,2.4876729585642283E-14
408.10810810810807,1.6470531913478475E-14,8.234180706845118E-15,2.4704712620323592E-14
410.8108108108108,1.6437025494613048E-14,8.09342914086745E-15,2.45304546354805E-14
413.5135135135135,1.6400051645816702E-14,7.953081881393702E-15,2.4353133527210406E-14
416.2162162162162,1.636146844877127E-14,7.799962655732983E-15,2.416143110450425E-14
418.9189189189189,1.6319726543063468E-14,7.649276142835332E-15,2.39690026858988E-14
421.6216216216216,1.6275026510504466E-14,7.501088749468275E-15,2.377611525997274E-14
424.3243243243243,1.6227563646284442E-14,7.355455443075083E-15,2.3583019089359524E-14
427.02702702702703,1.6177527514791897E-14,7.212420524910039E-15,2.3389948039701935E-14
429.72972972972974,1.6125101583711128E-14,7.072018394741164E-15,2.3197119978452292E-14
432.4324324324324,1.610891805700235E-14,6.94159253354297E-15,2.3050510590545322E-14
435.1351351351351,1.6107505215633943E-14,6.8171990873619574E-15,2.2924704302995902E-14
437.8378378378378,1.610590851228185E-14,6.6959702802919635E-15,2.2801878792573812E-14
440.5405405405405,1.6104244905734616E-14,6.5778734896536616E-15,2.2682118395388276E-14
443.2432432432432,1.6102625386843526E-14,6.4628716557374624E-15,2.2565497042580987E-14
445.94594594594594,1.610115517771403E-14,6.350923890875943E-15,2.2452079068589972E-14
448.64864864864865,1.609993394238842E-14,6.241986040277554E-15,2.2341919982665972E-14
451.35135135135135,1.609978831135628E-14,6.132648541880664E-15,2.2232436853236944E-14
454.05405405405406,1.610366300590256E-14,6.009694600932143E-15,2.2113357606834702E-14
456.7567567567568,1.6107939873222103E-14,5.890008425689475E-15,2.1997948298911578E-14
459.4594594594594,1.6112692853194823E-14,5.7735218947649664E-15,2.1886214747959788E-14
462.16216216216213,1.6117990071065785E-14,5.660165402686655E-15,2.177815547375244E-14
464.86486486486484,1.6123894060281795E-14,5.549868258547941E-15,2.1673762318829736E-14
467.56756756756755,1.6130461981054964E-14,5.4425590418229755E-15,2.157302102287794E-14
470.27027027027026,1.6137745829456047E-14,5.338165919293835E-15,2.1475911748749882E-14
472.97297297297297,1.6246982574471597E-14,5.298175628109407E-15,2.1545158202581003E-14
475.6756756756757,1.6436520693604937E-14,5.308762695384706E-15,2.1745283388989644E-14
478.37837837837833,1.6635790746085506E-14,5.3268956793085546E-15,2.196268642539406E-14
481.08108108108115,1.6845161922271786E-14,5.352894418970887E-15,2.2198056341242673E-14
483.78378378378375,1.7065029728869755E-14,5.387127332544193E-15,2.245215706141395E-14
486.48648648648646,1.729581789477021E-14,5.430017404159039E-15,2.2725835298929248E-14
489.18918918918916,1.753798033168328E-14,5.482049138497137E-15,2.3020029470180418E-14
491.8918918918919,1.7792003117087776E-14,5.543776672747632E-15,2.3335779789835408E-14
494.5945945945946,1.8058406481204168E-14,5.615833266200124E-15,2.367423974740429E-14
497.2972972972973,1.8391829041711266E-14,5.825910408924879E-15,2.4217739450636145E-14
500,1.8766351875489983E-14,6.182940181005086E-15,2.494929205649507E-14
502.70270270270277,1.9117051096782384E-14,6.575455533352994E-15,2.569250663013538E-14
505.4054054054055,1.9433579681098323E-14,7.005286594927049E-15,2.6438866276025373E-14
508.10810810810807,1.970322981947082E-14,7.473763519330184E-15,2.7176993338801003E-14
510.8108108108108,1.9910663716321833E-14,7.981379645292408E-15,2.7892043361614243E-14
513.5135135135134,2.0037699348883688E-14,8.527389903965529E-15,2.856508925284922E-14
516.2162162162163,2.0063278069178083E-14,9.109308709810053E-15,2.917258677898813E-14
518.918918918919,1.9963729127742034E-14,9.722327168510229E-15,2.9686056296252265E-14
521.6216216216217,1.9612953024017574E-14,1.0232033834516272E-14,2.9844986858533846E-14
524.3243243243244,1.8870729428639514E-14,1.0369442532856341E-14,2.9240171961495855E-14
527.0270270270271,1.8050851727695165E-14,1.045664602542894E-14,2.8507497753124104E-14
529.7297297297298,1.7166396667055262E-14,1.0493183580599862E-14,2.7659580247655124E-14
532.4324324324324,1.623186136013537E-14,1.0480056145669435E-14,2.6711917505804804E-14
535.1351351351352,1.5262423325271233E-14,1.0419607818300809E-14,2.5682031143572042E-14
537.8378378378378,1.4273204576030123E-14,1.0315323542768544E-14,2.4588528118798665E-14
540.5405405405405,1.3278608473729402E-14,1.0171570096763953E-14,2.3450178570493355E-14
543.2432432432432,1.2291780783084117E-14,9.993310927957004E-15,2.228509171104112E-14
545.9459459459459,1.1324223919038157E-14,9.785823699401844E-15,2.111004761844E-14
548.6486486486486,1.0388186033119508E-14,9.553592966568254E-15,1.9941778999687762E-14
551.3513513513514,9.631483972968381E-15,9.263275859842455E-15,1.8894759832810836E-14
554.0540540540541,8.914640564109038E-15,8.971620215146114E-15,1.7886260779255152E-14
556.7567567567567,8.238391222564307E-15,8.681089530209996E-15,1.6919480752774303E-14
559.4594594594595,7.60274039215072E-15,8.393734203967962E-15,1.5996474596118683E-14
562.1621621621621,7.007105718550851E-15,8.111223856561272E-15,1.5118329575112124E-14
564.8648648648648,6.450448868238644E-15,7.83488526933206E-15,1.4285334137570705E-14
567.5675675675675,5.9313905197764544E-15,7.565742678345086E-15,1.349713319812154E-14
570.2702702702703,5.448308731305198E-15,7.304557997347287E-15,1.2752866728652486E-14
572.972972972973,4.999421061284098E-15,7.051869289766162E-15,1.205129035105026E-14
575.6756756756757,4.582851580383289E-15,6.80802641951854E-15,1.139087799990183E-14
578.3783783783784,4.196684339866935E-15,6.5732232818643995E-15,1.0769907621731334E-14
581.0810810810812,3.8389992995550166E-15,6.347517336574543E-15,1.0186516636129559E-14
583.7837837837839,3.5450661077681572E-15,6.12630356059825E-15,9.671369668366407E-15
586.4864864864865,3.29445999988283E-15,5.9129427897565414E-15,9.207402789639372E-15
589.1891891891893,3.0622161464235068E-15,5.710096969068011E-15,8.772313115491518E-15
591.8918918918919,2.8468935569725078E-15,5.517219457575503E-15,8.364113014548011E-15
594.5945945945946,2.6471617786236944E-15,5.333779324614459E-15,7.980941103238153E-15
597.2972972972973,2.4617946492648862E-15,5.159264496172965E-15,7.621059145437852E-15
600,2.2896637311570514E-15,4.99318385322159E-15,7.282847584378642E-15
602.7027027027027,2.1297316575643143E-15,4.835068508897317E-15,6.964800166461631E-15
605.4054054054054,1.9810455602178886E-15,4.684472451818877E-15,6.665518012036765E-15
608.1081081081081,1.842730695042163E-15,4.540972703009099E-15,6.383703398051262E-15
610.8108108108107,1.7139843433731486E-15,4.404169106221474E-15,6.118153449594623E-15
613.5135135135135,1.5940700385769421E-15,4.273683846439227E-15,5.867753885016169E-15
616.2162162162161,1.482312146306208E-15,4.149160771790804E-15,5.631472918097012E-15
618.9189189189188,1.3932817805521434E-15,4.0364557388584205E-15,5.429737519410564E-15
621.6216216216216,1.3135651518069662E-15,3.930100841041173E-15,5.243665992848139E-15
624.3243243243244,1.2384179181003858E-15,3.828069326719076E-15,5.066487244819462E-15
627.0270270270271,1.1675425185548926E-15,3.730139224662929E-15,4.897681743217821E-15
629.7297297297298,1.1006628755334217E-15,3.636101457615946E-15,4.736764333149368E-15
632.4324324324325,1.0375227388071755E-15,3.5457590846380044E-15,4.58328182344518E-15
635.1351351351352,9.778841570611536E-16,3.45892657661675E-15,4.436810733677904E-15
637.8378378378379,9.215260710143368E-16,3.3754291285825206E-15,4.296955199596858E-15
640.5405405405405,8.682430169969425E-16,3.2951020080206635E-15,4.163345025017606E-15
643.2432432432433,8.178420466753919E-16,3.2177884904878312E-15,4.0356305371632234E-15
645.9459459459459,7.701492810455386E-16,3.1433469495378946E-15,3.913496230583433E-15
648.6486486486486,7.249972694842411E-16,3.071635930183494E-15,3.7966331996677355E-15
651.3513513513514,6.822319133765144E-16,3.0025251567187342E-15,3.684757070095249E-15
654.0540540540541,6.417096239859856E-16,2.9358916852405574E-15,3.5776013092265425E-15
656.7567567567568,6.032965357150731E-16,2.8716194501373663E-15,3.4749159858524395E-15
659.4594594594594,5.668677821602523E-16,2.8095988393763064E-15,3.3764666215365587E-15
662.1621621621622,5.481293398931228E-16,2.751467017185066E-15,3.2995963570781887E-15
664.8648648648648,5.304131538535999E-16,2.6953192234804878E-15,3.2257323773340876E-15
667.5675675675676,5.134307529389241E-16,2.641039850860699E-15,3.154470603799623E-15
670.2702702702702,4.971447510552958E-16,2.5885454397108563E-15,3.085690190766152E-15
672.9729729729729,4.815200127576767E-16,2.537757127739301E-15,3.0192771404969778E-15
675.6756756756756,4.665234973736698E-16,2.488600352146671E-15,2.955123849520341E-15
678.3783783783784,4.521241156687575E-16,2.441004574458447E-15,2.8931286901272046E-15
681.0810810810812,4.3829259732164633E-16,2.3949030251208186E-15,2.8331956224424648E-15
683.7837837837839,4.2500136864908256E-16,2.3502324665443552E-15,2.7752338351934378E-15
686.4864864864866,4.1222443951438734E-16,2.3069329732170837E-15,2.719157412731471E-15
689.1891891891892,3.999372986350719E-16,2.264947727147682E-15,2.664885025782754E-15
691.891891891892,3.881168169241676E-16,2.224222828045441E-15,2.6123396449696086E-15
694.5945945945946,3.767411577316784E-16,2.1847071166475045E-15,2.5614482743791828E-15
697.2972972972974,3.65789693696297E-16,2.1463520100126513E-15,2.512141703708948E-15
700,3.552429296927479E-16,2.109111348411414E-15,2.4643542781041617E-15
702.7027027027027,3.4508243131546514E-16,2.0729412526091893E-15,2.4180236839246543E-15
705.4054054054054,3.3636800417182626E-16,2.0379996454780265E-15,2.3743676496498526E-15
708.1081081081081,3.300403638953357E-16,2.004419550503112E-15,2.3344599143984475E-15
710.8108108108108,3.2389988127051144E-16,1.97175657754961E-15,2.2956564588201214E-15
713.5135135135134,3.179393238929967E-16,1.939976752154879E-15,2.2579160760478756E-15
716.2162162162163,3.121518012270272E-16,1.9090476677132435E-15,2.2211994689402707E-15
718.9189189189188,3.0653074536879404E-16,1.878938399789312E-15,2.185469145158106E-15
721.6216216216217,3.010698933975497E-16,1.849619425470203E-15,2.1506893188677526E-15
724.3243243243243,2.9576327069907123E-16,1.8210625477856406E-15,2.116825818484712E-15
727.027027027027,2.9060517526238025E-16,1.7932408249223538E-15,2.083846000184734E-15
729.7297297297297,2.8559016306559E-16,1.7661285040173476E-15,2.0517186670829375E-15
732.4324324324325,2.807130344754047E-16,1.739700958346496E-15,2.0204139928219007E-15
735.1351351351352,2.7596882107790574E-16,1.7139346289590536E-15,1.9899034500369593E-15
737.8378378378379,2.7135277371907404E-16,1.6888069694901808E-15,1.960159743209255E-15
740.5405405405406,2.668603511321739E-16,1.6642963942309345E-15,1.9311567453631085E-15
743.2432432432432,2.624872091608335E-16,1.6403822294718332E-15,1.9028694386326668E-15
745.945945945946,2.5822919060299764E-16,1.6170446674719121E-15,1.87527385807491E-15
748.6486486486486,2.540823159008286E-16,1.5942647233493406E-15,1.8483470392501695E-15
751.3513513513515,2.5004277398227167E-16,1.572024194117409E-15,1.822066968099681E-15
754.0540540540541,2.4610691411635966E-16,1.5503056204517786E-15,1.7964125345681384E-15
756.7567567567568,2.4244166621469537E-16,1.5291324201851956E-15,1.771574086399891E-15
759.4594594594595,2.392962219068814E-16,1.5085466878470911E-15,1.7478429097539725E-15
762.1621621621622,2.362212889400849E-16,1.4884272161477663E-15,1.7246485050878511E-15
764.8648648648649,2.332147415572961E-16,1.468759565522226E-15,1.701974307079522E-15
767.5675675675675,2.3027453385274086E-16,1.4495298562744235E-15,1.6798043901271644E-15
770.2702702702703,2.273986960440507E-16,1.4307247424001297E-15,1.6581234384441803E-15
772.9729729729729,2.2458533118667603E-16,1.412331387149213E-15,1.636916718335889E-15
775.6756756756757,2.2183261202949204E-16,1.394337439855365E-15,1.616170051884857E-15
778.3783783783783,2.1913877776631268E-16,1.37673101402441E-15,1.5958697917907226E-15
781.081081081081,2.1650213126881305E-16,1.3595006663609184E-15,1.5760027976297314E-15
783.7837837837837,2.1392103639642207E-16,1.3426353771749784E-15,1.5565564135714004E-15
786.4864864864865,2.113939152244177E-16,1.3261245316280473E-15,1.537518446852465E-15
789.1891891891893,2.0891924569174438E-16,1.3099579020582092E-15,1.5188771477499536E-15
791.891891891892,2.0649555921295632E-16,1.2941256308955066E-15,1.500621190108463E-15
794.5945945945947,2.0412143836322122E-16,1.2786182149352363E-15,1.4827396532984576E-15
797.2972972972973,2.017955148611288E-16,1.2634264900398802E-15,1.465222004901009E-15
800.0000000000001,1.9951646748809018E-16,1.2485416167707329E-15,1.448058084258823E-15
